867.0000 
878.5193 
888.7188 
897.7585 
905.6779 
916.5963 
926.8366 
935.6348 
947.1540 
957.2345 
966.3944 
975.0338 
978.5578 
979.6406 
978.7620 
976.6021 
977.5578 
980.4352 
984.7550 
987.7165 
990.1972 
992.3571 
994.5169 
995.0000 
996.3944 
999.9942 
1005.0315 
1010.5099 
1015.7935 
1019.3932 
1020.5986 
1020.6814 
1020.0770 
1021.5169 
1025.2625 
1031.7935 
1034.6733 
1036.9148 
1037.6418 
1037.3909 
1040.9907 
1046.1447 
1051.4282 
1055.7480 
1059.3897 
1060.6021 
1060.2357 
1061.6756 
1065.3466 
1069.6663 
1073.9860 
1079.7410 
1084.1879 
1087.1575 
1087.8775 
1092.1820 
1098.1739 
1105.4481 
1114.0875 
1121.7725 
1127.9860 
1131.5858 
1133.2742 
1136.1424 
1140.1540 
1141.5939 
1146.1354 
1152.1319 
1158.6114 
1163.7375 
1166.7935 
1168.2334 
1169.6733 
1172.7830 
1176.3827 
1179.9825 
1182.1494 
1186.4912 
1191.7818 
1195.3816 
1200.1739 
1202.0513 
1199.7468 
1194.7071 
1188.2392 
1181.2357 
1174.7561 
1168.2765 
1163.5764 
1160.6208 
1157.0210 
1155.4842 
1155.4714 
1156.9113 
1152.9463 
1149.8133 
1146.6138 
1137.9743 
1128.2240 
1118.6954 
1110.0560 
1101.4166 
1094.5181 
1088.2929 
1080.3734 
1073.0490 
1064.5893 
1054.5449 
1045.1855 
1035.8261 
1024.1284 
1015.0648 
1004.4784 
992.9697 
980.6558 
967.6966 
959.8833 
955.0618 
952.1820 
949.9767 
944.2672 
935.2847 
924.4854 
911.4691 
901.9032 
899.0233 
896.1435 
895.4341 
896.0000 
896.0000 
891.8425 
886.8028 
881.7970 
877.4772 
874.5788 
872.0315 
868.4317 
866.7328 
866.0000 
865.7795 
863.6196 
863.5134 
863.7666 
863.0467 
860.9802 
857.6406 
853.5473 
850.6674 
850.0000 
850.2730 
850.9930 
853.1389 
854.8658 
855.8471 
855.1272 
855.0000 
854.0618 
851.9673 
851.2474 
850.0548 
848.4224 
846.2625 
844.7351 
842.5904 
840.0000 
840.0000 
841.5368 
844.6254 
849.6651 
852.6884 
854.0000 
853.3279 
849.0082 
844.6884 
842.2719 
842.9918 
847.9825 
850.8635 
851.8483 
851.1284 
849.8168 
847.1307 
842.9370 
841.4971 
841.0000 
841.7655 
844.6453 
845.6313 
846.3512 
847.0000 
847.0000 
848.0222 
850.3862 
854.7060 
858.3547 
859.6091 
858.4457 
854.8460 
850.1447 
847.0000 
847.0000 
850.5531 
853.7223 
855.6989 
854.2590 
852.2287 
851.0000 
851.1214 
854.0012 
855.9405 
856.6196 
855.1797 
851.8495 
850.7001 
852.1400 
853.5799 
856.0397 
858.9195 
861.7993 
863.3396 
863.6103 
862.4516 
858.8518 
855.2520 
852.7305 
852.0105 
853.4189 
856.1470 
859.0000 
859.0000 
858.4107 
857.6908 
857.0875 
859.2474 
860.4691 
861.0000 
861.0000 
861.6289 
861.6511 
861.0688 
861.7888 
863.0175 
864.4574 
865.8973 
866.6686 
866.6114 
865.5659 
862.6861 
858.1610 
854.7316 
854.0117 
858.9580 
863.1412 
866.8891 
871.2089 
873.1762 
874.0000 
873.8600 
870.2602 
868.0642 
866.0607 
862.4609 
864.5111 
867.3909 
869.8646 
868.4247 
867.4924 
866.7725 
866.0525 
867.3349 
869.9370 
873.6441 
877.9638 
879.5473 
879.1984 
877.0385 
874.1715 
873.4271 
873.7060 
872.2660 
873.1739 
873.0793 
871.0537 
872.4936 
874.4002 
877.1202 
881.4399 
883.2532 
884.0000 
883.8670 
882.4271 
882.0000 
881.0945 
878.2147 
879.9988 
883.3174 
887.3186 
889.4784 
889.4539 
889.0000 
889.0000 
890.4119 
891.4259 
892.5834 
895.4632 
897.7573 
900.2229 
903.1797 
908.2194 
920.7083 
940.7923 
971.0303 
1019.0933 
1110.8646 
1202.2334 
1292.9475 
1353.8518 
1388.1260 
1391.7258 
1378.6978 
1366.2240 
1355.4247 
1344.6254 
1332.7363 
1320.4971 
1308.2579 
1292.4947 
1276.2310 
1260.3956 
1247.4364 
1235.0618 
1222.5181 
1209.6569 
1199.5776 
1187.1762 
1171.8378 
1151.6791 
1126.5263 
1101.2964 
1076.7538 
1051.5554 
1023.4142 
1006.7270 
986.5683 
961.7620 
935.7958 
909.0537 
881.6954 
859.2310 
838.6161 
818.4574 
800.4096 
784.5286 
770.5601 
758.3209 
744.9148 
733.0560 
723.5799 
710.6208 
696.7351 
681.0537 
661.6149 
640.9300 
621.7666 
604.5508 
587.9918 
572.9417 
557.8740 
541.3151 
524.7561 
508.5677 
499.5134 
503.1132 
514.9907 
542.0268 
572.2649 
604.6103 
631.9393 
654.8436 
674.2824 
690.8098 
703.6266 
712.2882 
721.6476 
727.7725 
732.2742 
737.3139 
739.2439 
742.0513 
746.8658 
756.9452 
763.5123 
769.2170 
776.4166 
783.6161 
791.5788 
800.3197 
809.6791 
821.2042 
835.0117 
851.5706 
867.4282 
880.7398 
891.4119 
898.6114 
908.1354 
919.7200 
933.5461 
952.2649 
969.1400 
984.4364 
998.1155 
1006.2077 
1011.0222 
1013.0607 
1013.7806 
1017.0035 
1021.5438 
1029.1669 
1034.6231 
1038.1412 
1039.8996 
1039.1797 
1039.0000 
1039.7806 
1041.9405 
1045.5006 
1050.7806 
1056.7001 
1060.2999 
1059.8401 
1057.2007 
1052.9207 
1050.0408 
1049.0000 
1049.1797 
1049.8996 
1050.0000 
1049.3209 
1047.8810 
1046.4411 
1046.4994 
1047.0000 
1047.0000 
1048.3186 
1049.3792 
1050.1984 
1051.6383 
1052.5391 
1055.5904 
1062.7900 
1066.4947 
1070.5134 
1073.7223 
1072.2824 
1071.4212 
1071.8961 
1074.1494 
1079.9090 
1086.5858 
1093.4282 
1099.1879 
1103.0922 
1105.6768 
1107.1750 
1109.3349 
1112.9895 
1118.1820 
1125.3816 
1131.2649 
1134.3781 
1134.4119 
1130.0922 
1124.6966 
1121.7736 
1123.9335 
1127.4889 
1131.0887 
1134.4131 
1136.5729 
1135.8448 
1133.8098 
1130.9825 
1130.2625 
1130.9148 
1132.3547 
1133.7946 
1132.1482 
1128.9767 
1124.6569 
1120.3372 
1119.0000 
1118.7830 
1118.0630 
1116.0292 
1113.4924 
1110.6126 
1107.7328 
1102.7060 
1097.7165 
1094.1167 
1091.2135 
1088.3337 
1085.0443 
1080.0047 
1073.8121 
1067.6289 
1061.8530 
1055.3734 
1050.7188 
1047.2952 
1044.4154 
1039.0712 
1031.9673 
1023.5519 
1017.7923 
1013.0245 
1008.7048 
1004.3851 
997.4422 
989.1155 
979.6604 
969.5811 
960.5729 
952.9557 
947.1960 
940.0455 
936.5846 
935.5939 
933.4341 
926.6721 
919.9335 
914.8786 
909.1190 
906.0898 
904.6499 
903.2100 
899.9253 
896.6604 
893.7806 
890.9008 
889.5053 
888.7853 
888.0653 
888.0000 
887.6254 
887.0945 
887.8145 
888.5344 
889.2544 
889.9743 
891.3886 
889.5146 
885.1949 
880.8751 
878.8518 
878.0000 
877.9580 
875.7981 
875.9078 
876.8261 
876.1062 
873.5449 
870.9988 
868.8390 
866.6791 
867.4807 
869.6406 
871.8005 
875.2672 
877.7468 
878.6266 
875.7468 
870.2007 
865.7468 
865.0268 
867.0793 
869.2392 
871.7981 
876.1179 
878.1459 
877.5356 
873.9872 
873.2672 
873.4527 
874.1727 
874.8926 
875.6126 
875.6674 
874.8425 
872.6826 
872.4924 
873.4247 
874.8646 
876.3046 
876.6278 
876.2765 
878.4364 
880.5963 
882.7561 
884.9160 
885.6919 
886.0000 
885.8681 
885.1482 
882.7130 
879.8331 
876.9883 
876.2684 
879.1610 
884.2007 
889.2404 
889.3886 
888.3372 
886.7946 
883.9148 
883.4912 
884.6336 
886.7935 
890.2555 
891.2579 
890.0910 
890.8110 
888.3454 
885.4982 
884.0583 
886.0723 
888.6429 
890.7386 
889.2987 
885.5764 
882.4189 
881.0210 
882.4609 
884.8016 
887.5111 
889.6709 
888.7795 
886.0187 
882.0000 
882.0000 
884.9405 
889.8903 
896.3699 
896.3501 
896.0000 
895.8203 
894.3804 
892.4107 
890.0012 
887.1214 
888.3792 
889.8191 
891.0000 
891.0000 
891.5694 
892.8681 
895.0373 
897.9172 
898.5508 
896.9848 
892.6651 
888.9545 
886.3419 
885.0000 
885.0000 
886.4667 
887.7911 
887.0712 
887.0000 
885.5251 
883.0000 
883.0000 
883.5286 
885.2427 
888.8425 
889.6884 
891.2252 
893.0000 
893.0000 
892.4317 
892.2882 
893.0000 
893.0000 
893.8961 
896.0082 
900.3279 
899.7841 
898.3442 
896.8086 
893.9288 
893.0000 
894.0385 
897.6383 
901.8856 
903.6324 
902.6499 
899.7701 
898.4726 
899.9790 
905.7386 
909.4364 
910.5928 
909.3641 
905.7643 
901.5974 
897.8518 
895.0070 
895.7270 
897.3407 
899.0000 
899.0000 
900.8203 
903.6336 
907.1867 
910.0665 
914.8926 
920.0327 
923.6324 
925.2929 
927.4656 
930.5181 
934.8378 
952.8401 
983.7573 
1035.6686 
1120.2754 
1208.5706 
1295.9720 
1364.3676 
1396.5438 
1407.4271 
1400.9300 
1392.2905 
1385.4341 
1380.1715 
1376.5718 
1371.1552 
1363.4422 
1353.2719 
1341.7526 
1330.7188 
1319.0980 
1305.4189 
1291.7398 
1281.7130 
1275.0630 
1267.1435 
1255.5484 
1241.3641 
1224.8051 
1201.3967 
1177.2334 
1152.3804 
1125.7421 
1102.4924 
1079.8891 
1056.8646 
1035.9860 
1012.6628 
990.4061 
965.9277 
940.8448 
915.6464 
890.3594 
863.7211 
837.0828 
812.0782 
791.1995 
775.4737 
759.2625 
742.1517 
726.3127 
711.5216 
698.0980 
686.5788 
672.3244 
657.9253 
642.7841 
624.0653 
605.9102 
587.3442 
567.9125 
549.9137 
533.2450 
517.2427 
506.3419 
500.1739 
496.3536 
495.7340 
507.9732 
527.4586 
551.5123 
578.1505 
603.5029 
626.8868 
647.8226 
663.6616 
678.9778 
693.1260 
705.3652 
714.1914 
721.2205 
726.0000 
726.0000 
729.9370 
735.5414 
742.0303 
751.3897 
756.7690 
759.1622 
759.8821 
761.2042 
763.2882 
766.3781 
772.8576 
782.2287 
794.4411 
810.2800 
821.6266 
829.5321 
834.3267 
837.2065 
839.0432 
842.8985 
851.5379 
860.1774 
868.8168 
878.4271 
892.8261 
906.6639 
919.2182 
930.0128 
937.9323 
945.4107 
952.6103 
959.8098 
966.4084 
972.5671 
978.2859 
983.3256 
986.9230 
988.7993 
988.0793 
988.0000 
987.6394 
987.2415 
989.4014 
991.5613 
994.6826 
999.7223 
1004.0817 
1007.6009 
1010.2404 
1011.6803 
1012.0000 
1011.1599 
1009.0000 
1012.5998 
1014.0000 
1014.9592 
1019.2789 
1022.6989 
1026.5986 
1030.1587 
1033.0385 
1039.2754 
1047.7935 
1057.8728 
1062.8366 
1066.4376 
1069.1587 
1070.5986 
1068.9230 
1068.1960 
1071.7958 
1078.7911 
1087.1879 
1096.4282 
1105.0677 
1110.9125 
1115.3944 
1118.9942 
1121.1564 
1124.1937 
1127.3174 
1128.7573 
1134.3874 
1140.8670 
1147.1925 
1150.7923 
1153.9137 
1156.1984 
1156.9183 
1159.5531 
1163.1494 
1167.5473 
1172.5869 
1174.5181 
1174.7620 
1174.0420 
1173.3221 
1173.7958 
1175.4714 
1178.3512 
1180.6733 
1180.8891 
1178.0093 
1178.7176 
1177.6873 
1176.1575 
1176.8775 
1176.4026 
1175.3652 
1173.7760 
1169.4562 
1166.5683 
1164.0140 
1160.4142 
1156.8145 
1153.5718 
1150.5379 
1146.2182 
1141.3816 
1137.7631 
1137.0432 
1132.9393 
1128.2229 
1122.8331 
1115.6336 
1110.6604 
1107.1704 
1105.0105 
1102.8506 
1101.1272 
1098.2800 
1090.3606 
1081.2485 
1069.9918 
1056.5298 
1047.1704 
1039.7153 
1034.0198 
1030.4201 
1026.1844 
1019.3734 
1010.1657 
1002.2462 
994.3267 
988.0572 
985.1774 
983.6488 
982.6044 
981.5379 
978.6581 
973.0012 
965.9708 
958.0513 
951.5624 
947.6943 
945.2240 
941.6243 
938.0245 
935.0548 
932.8250 
929.2252 
928.0000 
927.0257 
923.4259 
921.7305 
920.2905 
919.0000 
919.0000 
919.5146 
919.5309 
918.0910 
917.3256 
915.8168 
913.3139 
908.9942 
905.2287 
902.1774 
900.0175 
902.8565 
907.0385 
911.3081 
912.7480 
913.0000 
912.3722 
910.8646 
907.9848 
905.1050 
903.0000 
903.0000 
903.0000 
903.7071 
905.1470 
906.5869 
905.9732 
906.1669 
909.7666 
907.9802 
907.7865 
908.6604 
906.5006 
905.4469 
903.0887 
898.0490 
900.8518 
902.4329 
902.8471 
902.1272 
899.6289 
896.7491 
894.1960 
898.5158 
903.7806 
909.3477 
914.3874 
915.6324 
914.9428 
912.7830 
910.6231 
906.9265 
904.0000 
904.0000 
907.3606 
911.3524 
915.2240 
916.6639 
918.1039 
917.3687 
913.0490 
910.1529 
909.0000 
908.8483 
908.1284 
908.0000 
907.6884 
907.0945 
909.2544 
911.8856 
914.9568 
918.5566 
918.3687 
917.2975 
915.6441 
912.0443 
909.4667 
909.3862 
913.7060 
918.0257 
920.0000 
919.2240 
914.1844 
910.7970 
909.2707 
909.9907 
911.4212 
912.4306 
913.9032 
918.2229 
917.8191 
916.3792 
914.9393 
913.4994 
915.3512 
918.1902 
918.9102 
919.6301 
916.8495 
910.7200 
907.8401 
909.5496 
913.6091 
918.6488 
920.3396 
920.6103 
919.8903 
919.1704 
917.9008 
917.0000 
917.0000 
919.1284 
923.4352 
929.1949 
934.9545 
939.5356 
942.9277 
945.0583 
946.4982 
948.8763 
951.7561 
954.6359 
956.8868 
960.0933 
964.3442 
967.9440 
968.4912 
968.2287 
968.9487 
972.3431 
975.5543 
978.0000 
978.0000 
975.2579 
971.9265 
969.0467 
969.0000 
971.5694 
975.1482 
975.8681 
974.8238 
973.3839 
971.9440 
970.5041 
969.5321 
970.3151 
975.3547 
976.0000 
974.9568 
972.1202 
962.7608 
955.4317 
949.6348 
945.3151 
946.3349 
947.0000 
946.5706 
943.6908 
940.2637 
936.6639 
933.0642 
931.5858 
928.0105 
923.4119 
920.5321 
918.2392 
916.6931 
915.9732 
915.2532 
917.8005 
920.6266 
919.1867 
916.4936 
912.2275 
906.8670 
905.4271 
906.5193 
907.5473 
906.1074 
905.3337 
907.3174 
911.5309 
915.1307 
919.8226 
927.2567 
938.7760 
958.7666 
991.7025 
1040.7316 
1113.4469 
1201.3921 
1286.7118 
1362.1552 
1394.5531 
1404.1377 
1398.6604 
1385.7013 
1377.7456 
1370.5461 
1363.2159 
1354.5764 
1341.3897 
1327.8471 
1317.7678 
1306.3582 
1295.6091 
1284.7946 
1269.6756 
1254.0117 
1238.4376 
1223.3186 
1206.0852 
1191.3547 
1177.8168 
1161.9778 
1143.8005 
1124.7771 
1105.3384 
1085.8996 
1067.3897 
1048.6534 
1027.7748 
1007.3326 
985.9848 
963.4597 
946.1809 
929.4061 
914.4154 
902.8961 
888.0572 
872.1704 
855.6114 
839.0525 
825.7561 
813.5169 
801.2777 
791.1494 
781.9172 
774.1389 
769.8191 
760.2485 
747.3256 
731.2532 
708.2147 
687.9557 
670.7025 
657.7433 
644.1610 
627.7375 
608.6768 
593.5578 
580.9533 
572.5543 
571.1144 
578.2905 
588.1237 
599.9510 
613.6301 
630.5648 
649.0887 
668.5274 
689.3711 
704.3361 
714.4236 
721.6231 
727.6581 
733.4177 
739.0443 
740.4842 
742.8483 
745.9102 
749.5099 
756.8413 
763.3932 
768.0618 
768.7818 
767.9965 
768.1085 
771.7083 
779.2777 
788.7235 
799.0152 
806.2147 
813.4142 
819.5683 
823.8880 
831.7141 
839.6336 
847.1295 
852.8891 
862.7165 
873.2147 
883.2520 
891.8915 
901.4527 
910.6278 
917.1074 
923.5869 
930.7480 
938.6674 
946.5869 
954.0058 
962.3081 
973.1074 
981.2649 
987.6628 
992.3011 
994.4609 
996.0805 
997.5204 
998.9603 
999.7001 
1000.8401 
1001.7200 
1000.2800 
1000.0000 
999.7001 
999.0992 
1002.6989 
1006.7585 
1011.6173 
1018.0968 
1021.4784 
1023.0000 
1023.0000 
1023.0000 
1023.7491 
1026.7550 
1032.5146 
1036.9557 
1041.6546 
1046.4959 
1050.0957 
1053.1564 
1056.0362 
1058.9160 
1062.4947 
1066.0945 
1069.0000 
1069.0000 
1069.0000 
1068.4026 
1067.0560 
1069.2159 
1075.0443 
1083.1424 
1091.7818 
1097.3291 
1100.3384 
1101.0583 
1101.7783 
1102.9965 
1105.7456 
1111.5053 
1117.2649 
1121.8903 
1125.2940 
1127.4539 
1125.8483 
1122.9685 
1120.0887 
1122.0933 
1125.9242 
1130.8261 
1135.1459 
1137.1552 
1138.2975 
1139.0175 
1139.7375 
1140.9148 
1142.1774 
1142.8973 
1144.2345 
1144.3256 
1143.1144 
1144.5543 
1144.0058 
1144.0852 
1147.6849 
1147.3431 
1147.3769 
1147.1284 
1140.6488 
1135.2427 
1129.9463 
1124.1867 
1125.3932 
1127.2497 
1129.0000 
1129.0000 
1124.9650 
1119.6289 
1113.8856 
1108.8460 
1104.7188 
1101.1190 
1097.5193 
1094.5356 
1091.6558 
1088.6079 
1083.5683 
1078.0327 
1072.0572 
1065.5776 
1061.7211 
1056.6184 
1049.8518 
1041.2124 
1032.5729 
1023.0723 
1016.2328 
1009.7410 
1004.9230 
1001.7293 
1000.2894 
995.9732 
992.4096 
990.8938 
985.8541 
981.7246 
977.5998 
971.8401 
965.4656 
959.6558 
954.8355 
952.6756 
950.5158 
949.4294 
950.8693 
951.0000 
948.3781 
943.0548 
935.8553 
929.7246 
924.7281 
921.1284 
921.6943 
924.4854 
928.4026 
930.5624 
928.7036 
924.3536 
917.8880 
912.1284 
908.6383 
907.6954 
910.5753 
915.2964 
918.6674 
919.8390 
917.6791 
915.0257 
912.3594 
910.1995 
911.3069 
913.8670 
916.9067 
916.1867 
914.4002 
912.7468 
912.0268 
914.7725 
918.8915 
923.6651 
927.2649 
929.1459 
930.2929 
931.0128 
931.7328 
934.7165 
939.5543 
946.0338 
949.4504 
951.0000 
951.1575 
953.3174 
954.4924 
956.2742 
960.5939 
966.2182 
969.7445 
971.5531 
975.8728 
977.5321 
977.4959 
976.0560 
973.2322 
970.3524 
967.4726 
964.5928 
961.7130 
959.1249 
956.9767 
955.5368 
955.4516 
956.3431 
957.7830 
957.3886 
956.6686 
956.1027 
957.5426 
958.4912 
960.0560 
963.6558 
967.9067 
969.6289 
967.9988 
960.0793 
950.5671 
941.7421 
935.2625 
934.3092 
933.5893 
933.1307 
933.8506 
932.2882 
928.9662 
923.9685 
921.8086 
920.0992 
918.6593 
917.2194 
915.7795 
913.0187 
908.6989 
904.3792 
900.0595 
895.7398 
891.4201 
892.9498 
893.6301 
893.0898 
893.8098 
894.5298 
895.2497 
895.9697 
896.0000 
894.7713 
892.4819 
889.6021 
886.7223 
885.2894 
886.0000 
886.0000 
887.7970 
891.1844 
896.2240 
896.3909 
894.0257 
889.6079 
883.8483 
879.0665 
875.7911 
875.0712 
878.8926 
881.7375 
883.1774 
884.6173 
885.0000 
884.2544 
882.0945 
883.3769 
885.6336 
888.1284 
888.8483 
889.0000 
888.1354 
885.9592 
882.3594 
881.0000 
881.6721 
884.5519 
888.0397 
890.3279 
890.9043 
889.4644 
886.5613 
883.7923 
883.0723 
883.6476 
885.4702 
888.0875 
888.8075 
889.5274 
889.7526 
889.0327 
889.6873 
891.6289 
893.8728 
893.1529 
892.4329 
890.8518 
887.9790 
885.8191 
883.2124 
881.5006 
883.6604 
884.6068 
886.6336 
890.1867 
893.0665 
893.5134 
892.7935 
892.0735 
890.0607 
889.7328 
891.3454 
894.2252 
897.1050 
897.7690 
894.1692 
889.8833 
886.7818 
885.3781 
887.5379 
891.3956 
894.5718 
896.0000 
896.0000 
897.3372 
899.4971 
901.6569 
905.6336 
908.3256 
909.0455 
909.7655 
910.0000 
912.2590 
920.1785 
930.0338 
945.2264 
967.3442 
1004.0618 
1058.6091 
1137.8950 
1225.7293 
1308.7690 
1370.1039 
1407.9988 
1413.7585 
1404.8343 
1392.4446 
1380.9393 
1371.5799 
1363.5543 
1356.0257 
1347.3862 
1333.3069 
1316.5659 
1298.0688 
1282.9498 
1270.7363 
1260.3454 
1250.9860 
1244.2030 
1235.1750 
1223.2357 
1208.1167 
1191.4259 
1172.1960 
1149.1575 
1127.4866 
1106.6954 
1086.4131 
1065.5344 
1044.0922 
1019.7025 
999.8985 
979.0198 
960.3582 
943.5694 
928.4504 
913.3314 
896.2730 
876.8775 
858.1587 
840.4061 
825.3606 
816.0012 
804.7130 
793.5566 
782.5916 
770.3524 
759.1587 
748.1167 
736.5974 
722.3477 
707.5461 
692.0595 
674.7806 
659.1890 
644.6348 
630.9533 
616.5543 
602.5974 
589.0805 
576.1214 
569.1832 
567.6103 
571.5461 
580.9055 
594.6021 
611.4504 
630.8891 
652.2532 
672.7666 
691.7153 
706.8343 
719.3454 
728.4492 
732.7690 
740.4959 
749.6196 
758.8495 
763.8891 
767.2450 
769.8436 
772.0023 
773.4422 
775.7643 
779.1272 
784.1669 
788.6056 
791.6418 
793.2042 
796.8040 
803.2882 
811.4084 
820.0478 
831.8903 
843.4084 
853.8856 
861.8051 
869.2042 
875.9230 
881.6826 
890.1634 
898.4026 
906.4422 
915.0817 
923.7211 
931.8005 
939.0000 
946.1995 
955.1587 
965.3979 
976.1972 
983.3979 
989.5578 
995.2777 
1000.3174 
1002.0000 
1002.1995 
1002.9195 
1006.1972 
1008.7188 
1010.3174 
1013.1972 
1016.0770 
1018.7176 
1020.8775 
1023.7165 
1027.9953 
1031.2380 
1032.6779 
1033.5589 
1034.2789 
1034.9988 
1036.4376 
1038.7550 
1041.6348 
1044.5146 
1045.5986 
1048.8670 
1055.1540 
1058.0338 
1059.9568 
1062.1902 
1066.5099 
1070.1914 
1074.1494 
1078.1564 
1079.5963 
1080.5181 
1081.0000 
1081.0000 
1085.0677 
1090.5811 
1096.9428 
1102.7025 
1106.2310 
1109.6663 
1113.9860 
1116.1529 
1119.1879 
1122.6301 
1125.5099 
1128.3897 
1130.3174 
1131.1120 
1133.2719 
1135.4317 
1138.3804 
1143.4201 
1149.0968 
1153.0712 
1155.0770 
1155.7970 
1154.4492 
1153.7106 
1155.8705 
1160.7375 
1162.6033 
1162.3501 
1164.5099 
1166.6698 
1168.2765 
1168.9965 
1169.0000 
1171.6184 
1175.6254 
1178.5053 
1181.3851 
1183.9487 
1185.9277 
1184.4877 
1183.5239 
1183.3921 
1184.8320 
1189.4516 
1193.7795 
1197.0000 
1197.0000 
1195.9685 
1194.2929 
1192.1330 
1190.6488 
1190.0000 
1190.0000 
1190.0000 
1189.4446 
1188.1739 
1186.0140 
1179.5624 
1170.4714 
1160.1377 
1151.4982 
1143.4539 
1137.4247 
1133.6149 
1125.6954 
1118.7258 
1112.2462 
1105.7666 
1098.6523 
1094.6453 
1093.4772 
1088.4376 
1080.3104 
1070.0128 
1057.7736 
1050.9300 
1044.0560 
1036.7421 
1028.8226 
1022.4516 
1018.3547 
1014.0350 
1009.0012 
1003.0933 
996.4597 
989.2602 
983.8425 
978.1750 
971.5263 
961.4469 
951.8413 
943.6441 
938.6044 
936.0992 
934.6464 
933.7795 
931.6196 
926.8926 
921.5998 
917.2800 
912.9603 
911.0000 
911.1132 
911.8331 
908.6814 
904.3617 
900.0420 
894.2964 
888.5368 
883.8471 
883.1272 
884.7783 
887.2509 
890.0327 
890.7526 
891.0000 
890.2299 
887.3501 
887.0000 
885.5904 
883.0000 
883.0000 
883.0000 
883.6966 
885.8565 
883.9837 
883.7841 
884.6639 
882.5041 
879.7923 
876.6406 
873.0408 
873.7118 
874.4317 
875.7585 
879.3582 
883.5496 
886.3116 
886.9055 
884.7456 
881.6429 
878.2345 
875.3547 
874.3687 
875.4049 
878.0000 
878.0000 
876.9778 
876.0000 
876.0000 
880.0257 
885.9090 
892.2217 
893.6616 
894.0000 
891.5636 
885.0840 
881.4469 
879.1389 
877.6989 
876.2590 
875.4096 
875.0000 
875.1214 
878.0012 
880.4107 
882.3804 
883.8203 
886.5204 
886.9498 
884.4399 
878.6803 
875.4702 
873.5403 
872.1004 
873.3396 
876.7281 
881.2194 
882.6593 
881.9008 
881.2695 
881.9895 
882.0000 
883.2882 
884.7013 
883.2614 
882.4107 
880.4539 
877.0292 
877.7491 
877.0618 
876.1890 
876.9090 
879.5158 
882.0467 
884.0688 
884.7888 
881.9475 
878.5426 
877.1027 
874.9942 
874.3886 
875.3256 
877.4854 
879.0968 
881.3419 
884.9417 
883.5834 
883.0000 
883.2964 
884.7363 
885.0000 
884.3839 
882.8880 
880.0082 
878.0642 
877.0000 
877.0000 
873.8611 
872.6954 
874.1354 
875.5753 
879.5531 
883.6826 
885.8425 
887.3349 
888.7748 
890.2147 
891.6546 
893.6418 
894.1984 
892.0385 
890.5858 
887.8646 
885.2940 
886.7340 
884.0653 
882.0000 
881.9463 
880.5064 
881.8670 
885.1202 
889.4399 
891.8798 
892.6534 
891.8005 
889.6406 
887.4807 
885.5473 
884.1074 
885.3326 
886.7725 
888.3186 
890.4784 
888.8156 
886.7340 
886.0140 
888.8238 
890.8518 
892.5834 
895.4632 
898.9288 
900.0828 
897.7946 
892.0350 
887.6721 
885.3711 
886.8110 
890.1272 
894.0723 
897.9347 
897.2147 
894.4737 
892.2252 
892.9452 
896.9907 
900.5403 
903.6301 
907.9498 
907.9102 
907.2649 
907.9848 
911.5239 
914.6989 
917.4341 
919.5939 
920.5846 
923.7410 
930.6371 
949.3559 
980.1494 
1018.8775 
1098.7095 
1188.0338 
1271.4877 
1343.6313 
1373.1494 
1377.9673 
1366.8308 
1343.7923 
1330.7130 
1321.5449 
1314.8576 
1306.9382 
1294.6686 
1280.7258 
1266.3267 
1250.5204 
1237.6464 
1227.1342 
1217.7748 
1208.4154 
1198.7526 
1188.5566 
1174.8775 
1157.9557 
1139.0537 
1119.6149 
1100.1762 
1080.0513 
1058.7946 
1033.5963 
1004.8833 
976.9767 
951.0583 
927.7911 
904.3699 
881.1249 
860.9662 
839.7223 
817.5986 
794.5601 
768.0093 
741.7935 
717.0140 
696.8553 
680.1902 
665.5601 
652.7561 
644.8366 
640.1517 
637.4539 
635.2940 
630.0245 
622.5554 
613.0105 
601.4912 
586.4597 
569.6791 
552.4002 
535.1214 
516.6978 
504.5788 
494.4994 
492.5414 
496.6593 
506.7386 
523.7398 
545.6371 
567.8005 
592.2789 
613.2707 
632.5263 
650.4201 
664.8191 
676.9137 
687.1704 
695.8098 
703.8285 
710.3851 
715.3641 
719.6838 
724.0035 
728.9848 
735.4644 
739.3022 
742.5216 
745.0000 
745.0000 
746.0805 
748.3011 
751.9008 
761.1015 
772.5613 
785.6604 
799.3396 
809.5391 
818.8985 
828.2380 
836.8775 
845.0572 
854.4142 
868.0933 
883.0117 
898.4702 
914.1902 
928.5893 
939.4924 
949.0712 
959.1505 
969.2299 
981.5846 
995.5869 
1007.1062 
1015.9300 
1022.1657 
1026.8110 
1027.6989 
1029.2567 
1032.1109 
1037.8705 
1041.3151 
1044.1949 
1046.9440 
1044.7841 
1044.0000 
1044.8926 
1048.4924 
1048.3816 
1047.6616 
1046.9417 
1046.2217 
1045.5018 
1046.0910 
1049.6908 
1057.2392 
1063.2684 
1067.0980 
1067.8180 
1067.4621 
1065.1949 
1060.1552 
1057.9067 
1057.0000 
1057.5508 
1060.4306 
1063.8880 
1068.3804 
1074.1225 
1079.1622 
1084.2019 
1089.2415 
1094.2812 
1098.7036 
1104.3722 
1111.4574 
1117.2170 
1119.4971 
1119.1319 
1116.2520 
1113.3722 
1111.2462 
1109.8063 
1108.3664 
1108.0000 
1106.9732 
1104.0933 
1106.7865 
1110.0828 
1113.8191 
1118.1389 
1120.1529 
1121.0000 
1120.9837 
1120.2637 
1120.4562 
1121.8810 
1125.4807 
1129.0805 
1130.3279 
1128.7200 
1125.1202 
1122.0163 
1118.9207 
1115.3209 
1110.4096 
1105.3699 
1099.7561 
1090.3967 
1081.0373 
1073.4667 
1069.1470 
1064.1319 
1058.2614 
1051.7818 
1045.3022 
1038.2474 
1029.8670 
1021.8786 
1016.1190 
1011.2695 
1006.0747 
998.1552 
987.7760 
977.3116 
967.5064 
961.0268 
955.5368 
950.0677 
943.5881 
937.1085 
931.0035 
924.5823 
913.7830 
901.9148 
891.9650 
886.2054 
880.4457 
878.0000 
877.4632 
874.5834 
867.6849 
860.3536 
853.9440 
851.0642 
847.7305 
844.6523 
843.2124 
839.9312 
835.6639 
830.5169 
824.0373 
819.5321 
817.6406 
819.8005 
825.2275 
828.7468 
829.4399 
825.1202 
817.6009 
808.7083 
799.3489 
792.7620 
790.8261 
792.5321 
795.4119 
798.2917 
797.6569 
791.9102 
786.8705 
785.4527 
788.4177 
798.4971 
806.7386 
811.6651 
812.4749 
805.2754 
796.1062 
786.6639 
778.7445 
779.3046 
782.6056 
787.9218 
795.1214 
798.5963 
798.7398 
795.1400 
788.0805 
783.3524 
780.8681 
780.1482 
781.7153 
783.8751 
786.0233 
787.4632 
788.0000 
787.8285 
787.1085 
788.8343 
790.0000 
789.7946 
786.9148 
785.0175 
783.5776 
782.1377 
786.5578 
789.0000 
788.7270 
786.5671 
784.9382 
784.5018 
785.9417 
786.0000 
786.8215 
788.5228 
791.4026 
794.2824 
796.0000 
795.9580 
793.0782 
788.8471 
785.0000 
785.0000 
786.8308 
788.9907 
791.0000 
791.0000 
787.5694 
783.3699 
781.2100 
783.5998 
787.9592 
793.6289 
798.6686 
797.8810 
794.2520 
789.2124 
784.8623 
785.8670 
791.1657 
797.6453 
801.8471 
802.5531 
798.9627 
796.0828 
791.8553 
788.1692 
788.8891 
790.2182 
790.6709 
789.6079 
783.8483 
780.0443 
777.3734 
775.2135 
776.2975 
777.7375 
779.4434 
783.0432 
783.4714 
782.5029 
781.0630 
778.9347 
778.8168 
780.1284 
780.8483 
782.7048 
783.4236 
781.9755 
779.8156 
775.4154 
769.8238 
764.7841 
764.0000 
763.6721 
763.0000 
763.0000 
761.0490 
758.7923 
758.0723 
758.6476 
757.5298 
754.6499 
751.7701 
748.8903 
747.2474 
747.9673 
746.6254 
748.4434 
752.2544 
753.6943 
755.1342 
754.5648 
750.9230 
743.0035 
735.0840 
729.1669 
729.8868 
730.0000 
732.6138 
738.1400 
740.2999 
741.0000 
740.1739 
737.2940 
734.4142 
735.5648 
740.2590 
742.4189 
743.5263 
742.5228 
738.2030 
731.1389 
727.1879 
726.2520 
727.6919 
730.8296 
733.8576 
736.0350 
740.3547 
741.1085 
739.8343 
739.1144 
735.9720 
734.0000 
734.1820 
737.0618 
737.5146 
736.7946 
736.0747 
732.7736 
731.3652 
732.9370 
740.8565 
749.8261 
759.6756 
770.4749 
779.2194 
794.3372 
818.9907 
865.0677 
942.2065 
1016.3501 
1121.5928 
1213.0268 
1304.4609 
1377.3034 
1387.3827 
1367.2404 
1343.5928 
1322.9802 
1306.4212 
1289.3781 
1271.8950 
1253.8961 
1237.1855 
1219.8985 
1202.2357 
1187.1167 
1171.4737 
1155.8786 
1140.7596 
1125.6406 
1108.5029 
1089.1657 
1066.8471 
1039.4562 
1009.9568 
976.8705 
950.2322 
924.9242 
900.9358 
878.6173 
857.5053 
835.9802 
813.4457 
787.5274 
762.5753 
738.2999 
714.5414 
697.2124 
681.0163 
665.4259 
651.7468 
638.0677 
625.1167 
613.5974 
598.6651 
583.5461 
569.5298 
560.8903 
559.0000 
557.3057 
552.9720 
544.3326 
531.7130 
516.4317 
506.2964 
499.5811 
494.3897 
490.8320 
487.9522 
483.6266 
479.1925 
476.3127 
481.7760 
490.0642 
500.2660 
511.4253 
525.8670 
537.1400 
546.4994 
556.5403 
565.8168 
574.3349 
582.2544 
591.2964 
599.5309 
605.9965 
603.8366 
598.1482 
591.6779 
590.2380 
594.8075 
600.5671 
606.2450 
610.5648 
610.5578 
608.5986 
607.1587 
610.8436 
617.6873 
626.9662 
635.6056 
642.6838 
648.4422 
652.7620 
659.1225 
667.2030 
676.6826 
686.7620 
694.6009 
700.4002 
704.0000 
711.9195 
718.9592 
726.3979 
737.1972 
740.1995 
743.5578 
748.9603 
748.2404 
747.0408 
746.0000 
746.0000 
748.5578 
752.1564 
756.3174 
759.1972 
762.5963 
765.7176 
767.8775 
770.7165 
772.0000 
772.3571 
774.5169 
779.4714 
785.2310 
790.9907 
791.7188 
792.4387 
793.7935 
797.3932 
803.9860 
810.8670 
816.9615 
816.2415 
811.6943 
806.0082 
802.4084 
809.0210 
820.5228 
835.4072 
848.3664 
855.1085 
857.0478 
854.1680 
849.2544 
847.0000 
847.7071 
852.0268 
859.1354 
867.0548 
874.9743 
879.3057 
885.3757 
892.4177 
898.8973 
901.7923 
904.2695 
906.8506 
903.9708 
903.9545 
905.0000 
905.0000 
910.0968 
914.0712 
916.3851 
919.9848 
920.4831 
919.5263 
918.0863 
914.6161 
914.9837 
918.7001 
923.0198 
925.1132 
925.4469 
924.0070 
919.7013 
914.0723 
906.9673 
897.6079 
887.6523 
881.3676 
880.0000 
880.0000 
880.0000 
877.6476 
869.0082 
857.8250 
847.7293 
839.7725 
837.6126 
836.4842 
835.2929 
833.1330 
827.5951 
823.0222 
819.1914 
814.1517 
810.7783 
806.5216 
800.0420 
791.4166 
780.6009 
769.9137 
764.8740 
763.4049 
764.2602 
766.8600 
763.9802 
759.6756 
753.6616 
745.0222 
738.2870 
734.2905 
733.1494 
734.5893 
734.4854 
732.5928 
728.2730 
718.5578 
709.6616 
703.0000 
703.0000 
703.5543 
704.2742 
704.9942 
705.0000 
704.1319 
702.6919 
701.2520 
701.5939 
704.5111 
710.0338 
710.7538 
710.0525 
708.0315 
704.4317 
704.0000 
704.3536 
704.9265 
704.2065 
699.8926 
694.1330 
688.3734 
685.3069 
684.3932 
685.3396 
687.4994 
692.4247 
698.1844 
703.9440 
706.8518 
707.1342 
704.3186 
696.3991 
688.4796 
682.4364 
679.0327 
679.7526 
680.0000 
679.4224 
677.2625 
675.7351 
671.8285 
665.6383 
662.0385 
657.4142 
654.6966 
656.8565 
653.6394 
650.4317 
647.2159 
642.1762 
640.4481 
642.1750 
647.9347 
653.6943 
661.1809 
669.5169 
676.7165 
676.2252 
669.7036 
657.1809 
638.4621 
617.8576 
597.7900 
581.9510 
573.6873 
567.8926 
564.0712 
564.7911 
561.9335 
557.6138 
553.2940 
552.3291 
554.3454 
559.8845 
572.1237 
581.0583 
587.0828 
589.9627 
591.4212 
591.5694 
592.2042 
597.9638 
605.4947 
612.4831 
617.6359 
608.9965 
597.0653 
583.3862 
569.7071 
561.6989 
557.2999 
555.9300 
555.2100 
555.0000 
555.4597 
556.8996 
556.3302 
558.3384 
563.4259 
572.7853 
584.8926 
599.1995 
615.7585 
630.1890 
643.7293 
657.5846 
674.8635 
689.1960 
700.4014 
708.2042 
713.2439 
718.2835 
722.1890 
722.9090 
728.6604 
734.4422 
739.3442 
742.9440 
744.5088 
745.0000 
745.0000 
745.6686 
749.1085 
754.5426 
758.1424 
762.2905 
766.0735 
768.9533 
771.8331 
774.7130 
778.4819 
785.6814 
794.0572 
801.4644 
807.1400 
810.7398 
811.0642 
808.6849 
803.6453 
802.3722 
804.0863 
808.8798 
818.2392 
828.6138 
839.8681 
852.1074 
856.3372 
858.3874 
858.6779 
856.5181 
855.4527 
856.3361 
859.9358 
858.5858 
856.7188 
855.4411 
857.6009 
861.5216 
866.4551 
872.0805 
874.2404 
873.5998 
871.0665 
867.4667 
866.3734 
866.0000 
866.2660 
869.1459 
872.0257 
874.6791 
876.8390 
878.9988 
880.3862 
881.0000 
881.0000 
881.0000 
880.2019 
878.0420 
877.2940 
879.1295 
883.0210 
888.0607 
893.1004 
894.4714 
890.7176 
882.7981 
875.8098 
869.7013 
864.6616 
866.5018 
868.3454 
868.9347 
868.2147 
866.4842 
862.9732 
856.4936 
852.0093 
848.0747 
845.3151 
847.4749 
850.7246 
853.7946 
855.9545 
853.1809 
849.0268 
843.9872 
838.9475 
836.2462 
830.7363 
820.5834 
808.3442 
800.2847 
795.6313 
794.1914 
795.8728 
797.3442 
797.6149 
793.2952 
787.4632 
781.8798 
778.2800 
774.6803 
772.6161 
772.0000 
772.0000 
772.5438 
772.4726 
771.0327 
769.5928 
766.4586 
762.8565 
762.1365 
762.0000 
761.3932 
759.9533 
758.5134 
759.8530 
762.1832 
762.9032 
761.1307 
757.5986 
752.7480 
749.8681 
749.5029 
750.6686 
752.8285 
751.0117 
750.7655 
752.2054 
753.6453 
754.5426 
755.5251 
756.9650 
753.4877 
752.0000 
751.7153 
750.2754 
751.7468 
752.6978 
752.0000 
752.0000 
752.4621 
753.3641 
754.8040 
755.6219 
756.0000 
756.0000 
756.0000 
758.0070 
760.6651 
762.8250 
763.6616 
761.7106 
757.1879 
751.4282 
746.7515 
744.0000 
744.0000 
747.5064 
751.1062 
754.8471 
759.1669 
761.7433 
763.6021 
764.8950 
761.2952 
758.6173 
756.4574 
754.2975 
756.4831 
759.0222 
761.6674 
769.5869 
776.0047 
780.4411 
781.8810 
777.3769 
772.7176 
767.9965 
760.7970 
759.0000 
759.0000 
759.0000 
759.0000 
757.7398 
756.9802 
762.0198 
765.8996 
768.5998 
769.9802 
769.2602 
766.7013 
764.0000 
764.0000 
762.1412 
760.3209 
759.2380 
762.1179 
765.4971 
768.8775 
771.7573 
773.3186 
776.2754 
780.2975 
782.4574 
782.4609 
780.9638 
778.0840 
778.0000 
779.2567 
781.2777 
782.7176 
779.5274 
774.9090 
769.9253 
767.0455 
766.9172 
768.3571 
769.7970 
773.7106 
777.3536 
780.1167 
781.5566 
782.0000 
782.4364 
783.8763 
783.3419 
783.0000 
783.0000 
783.0000 
783.0000 
782.7421 
782.0222 
784.0933 
785.8355 
787.5508 
790.4306 
794.4656 
797.0000 
796.9125 
793.3127 
789.2555 
784.7585 
779.7188 
780.2345 
782.6861 
786.3431 
790.6628 
792.0000 
792.2170 
792.9370 
791.6861 
791.3769 
792.0968 
792.8168 
793.0000 
793.2567 
793.9767 
793.3034 
792.5834 
792.2730 
793.7130 
795.1529 
795.1109 
793.0000 
793.0000 
793.0000 
793.0000 
793.0000 
794.8483 
797.3442 
800.1120 
801.5519 
802.0000 
801.3524 
799.1925 
797.0327 
799.0058 
804.3827 
807.2625 
809.6068 
809.9778 
807.0980 
804.2182 
802.5846 
802.1354 
802.8553 
804.7258 
806.2952 
807.0607 
809.9405 
812.3652 
813.4749 
811.3151 
814.0747 
817.3396 
820.0548 
820.7748 
819.5158 
816.0677 
809.5881 
805.7270 
804.0000 
804.9452 
812.1447 
818.8098 
823.0000 
823.0000 
818.8343 
814.9288 
811.5974 
809.4376 
809.5741 
810.8821 
813.0700 
816.6698 
820.2695 
823.5216 
825.6814 
829.0688 
831.0000 
831.0000 
831.0000 
830.0128 
828.5729 
827.1330 
825.0397 
824.0000 
824.2800 
826.4399 
827.5333 
828.0000 
828.0000 
825.9207 
826.6523 
829.5321 
832.4119 
835.8646 
840.3431 
846.1412 
854.0607 
860.6219 
866.2089 
871.2485 
877.5134 
887.6511 
902.9428 
929.5811 
973.9463 
1027.0945 
1125.7281 
1217.8390 
1309.2730 
1400.7071 
1492.1412 
1546.3291 
1564.6826 
1540.9242 
1518.5496 
1498.2905 
1480.4947 
1466.8156 
1453.7083 
1438.4154 
1419.6149 
1395.8565 
1372.0980 
1348.3396 
1324.5811 
1305.1027 
1285.3897 
1264.3571 
1241.3186 
1216.8063 
1190.9743 
1163.6161 
1135.6068 
1107.5286 
1080.4516 
1060.2929 
1038.5414 
1015.4702 
990.9918 
964.4411 
936.9813 
909.1645 
882.5263 
858.1704 
836.1552 
816.7165 
797.2777 
779.1902 
762.9335 
749.9743 
741.8973 
735.6884 
730.6989 
726.3792 
719.1190 
710.4796 
701.8401 
695.8005 
690.0408 
684.7305 
682.5706 
679.3512 
675.5018 
671.1820 
668.2415 
664.5426 
661.3886 
663.5484 
666.2777 
668.8681 
671.0280 
673.1879 
675.3477 
678.1844 
683.2240 
688.2637 
695.2777 
704.4901 
711.6896 
717.9113 
723.2532 
727.5729 
729.2975 
732.2124 
736.8868 
744.0863 
749.1715 
752.0000 
752.0000 
751.3116 
751.0000 
751.3851 
753.5449 
754.5683 
757.8821 
765.0735 
771.5531 
778.4807 
785.0082 
789.3279 
793.6476 
797.3116 
800.2870 
804.6068 
807.9510 
811.2462 
815.5659 
821.1809 
828.4107 
837.1377 
846.4971 
852.6919 
856.9895 
859.8693 
864.1237 
867.6289 
872.2894 
885.2485 
893.6709 
899.7223 
903.9930 
903.2730 
902.1062 
900.4994 
898.3396 
898.6068 
899.9802 
902.2800 
906.5998 
909.4597 
912.2392 
916.5589 
915.7071 
915.3664 
916.2590 
918.4189 
920.5788 
923.4772 
927.7970 
932.1167 
936.0303 
939.8821 
944.9218 
950.5274 
955.1435 
958.0000 
958.0000 
958.4457 
959.1657 
959.8856 
965.4504 
972.2555 
979.3641 
985.1237 
990.8833 
997.0537 
1004.2532 
1008.2264 
1013.2870 
1019.6814 
1026.8821 
1032.6254 
1035.7351 
1037.8950 
1038.6849 
1040.2147 
1042.8740 
1047.9137 
1051.8238 
1055.4236 
1059.0373 
1064.7970 
1069.6674 
1073.6581 
1076.5379 
1077.6044 
1077.6756 
1077.0000 
1077.0000 
1076.5158 
1076.4084 
1077.8483 
1079.2882 
1081.0922 
1083.4201 
1087.0198 
1090.6196 
1094.2194 
1097.8191 
1098.6838 
1097.3851 
1094.0105 
1088.2509 
1083.6184 
1079.5823 
1075.9930 
1074.5531 
1073.1132 
1070.5298 
1064.0502 
1060.5869 
1059.0000 
1058.9137 
1057.4737 
1052.1692 
1043.7515 
1032.2322 
1022.0350 
1016.8226 
1012.9172 
1012.1972 
1009.9090 
1005.5729 
998.3734 
990.4912 
983.7795 
978.6324 
976.4726 
974.8751 
973.1529 
970.9837 
965.9440 
960.0198 
953.5403 
947.0607 
944.7958 
943.6779 
942.9160 
941.4761 
939.5543 
935.9813 
928.7818 
918.3734 
909.7445 
903.5916 
899.9918 
898.4784 
898.4831 
899.9230 
899.3186 
896.5916 
893.4854 
896.3652 
898.6838 
901.1249 
903.9965 
901.8366 
898.3536 
893.0677 
884.4282 
877.5916 
873.0373 
871.1634 
874.0432 
875.4807 
876.0000 
876.0000 
875.3594 
876.0817 
878.4026 
882.0023 
879.8775 
875.0770 
869.3174 
864.9183 
862.1995 
861.2404 
862.6803 
866.3606 
870.6803 
875.0000 
877.8798 
879.4399 
879.5204 
877.3606 
874.6009 
870.7620 
866.1587 
869.0385 
873.3571 
877.7981 
880.6779 
878.4422 
876.2812 
874.8413 
873.4014 
873.0000 
871.8040 
868.2042 
868.6791 
869.3991 
870.2380 
871.6779 
872.5589 
873.8366 
875.9965 
878.1564 
880.3162 
881.6826 
880.2427 
877.0070 
874.0443 
871.9615 
871.2415 
873.3921 
876.5951 
878.7550 
877.7235 
875.9253 
874.1564 
875.5963 
877.0362 
878.4761 
879.9160 
880.6779 
881.7958 
883.4714 
886.3512 
889.2310 
891.0000 
891.0000 
887.4119 
883.8121 
880.8425 
880.1225 
880.0000 
880.0000 
880.1120 
882.2719 
883.9545 
885.1972 
885.9172 
885.3629 
885.3571 
885.7690 
883.6091 
884.0338 
885.7106 
887.8705 
888.6768 
890.1902 
892.3501 
894.5099 
895.0000 
894.1704 
892.0105 
885.5519 
880.3816 
877.1564 
877.8763 
882.7701 
888.8460 
895.2532 
900.2929 
902.9522 
904.9802 
908.5799 
910.2719 
911.7118 
913.5309 
918.5706 
921.0315 
923.4142 
927.7340 
931.3781 
932.2089 
930.5379 
927.6581 
924.7783 
923.2754 
923.9953 
924.7153 
924.1295 
922.6896 
921.2497 
923.9755 
927.2602 
930.1400 
933.0198 
935.4247 
937.0000 
937.0000 
937.0000 
937.0000 
936.6266 
933.0268 
928.3979 
922.6546 
915.4551 
911.6278 
908.8168 
908.0292 
914.5088 
918.2170 
918.3547 
914.0350 
912.5718 
910.6978 
908.2299 
904.6301 
905.1879 
904.1167 
899.9323 
898.4924 
897.5263 
896.6126 
895.1727 
893.0992 
892.3536 
893.0735 
893.7935 
898.1074 
902.2334 
902.9533 
900.9802 
900.0000 
900.1132 
900.8331 
902.6593 
905.0922 
907.9720 
910.1389 
911.8658 
913.1529 
913.8728 
916.3711 
922.6908 
933.7188 
949.5578 
970.1225 
996.4341 
1039.4236 
1119.4656 
1205.7538 
1297.1879 
1388.6219 
1480.0560 
1559.1832 
1612.4597 
1591.8040 
1565.1015 
1539.0875 
1520.3687 
1506.0653 
1492.5624 
1478.1634 
1456.6464 
1432.4574 
1406.9942 
1383.2357 
1361.2520 
1341.2112 
1323.2124 
1305.2135 
1288.6289 
1272.4072 
1255.1284 
1236.5869 
1215.0583 
1190.2952 
1162.9370 
1135.5788 
1108.9137 
1083.7153 
1061.2007 
1038.1004 
1018.4504 
1001.8915 
986.4341 
972.1272 
959.1680 
944.7876 
932.1109 
919.9895 
905.5904 
889.4201 
875.9650 
866.7573 
860.9977 
857.1190 
854.4294 
852.2695 
848.2194 
842.1494 
834.1599 
825.5204 
817.3909 
807.8623 
794.9032 
785.2929 
775.9335 
767.0128 
760.5333 
755.7025 
752.1914 
750.0315 
750.7095 
751.8588 
753.5974 
756.4772 
761.1249 
766.1645 
771.2042 
776.2439 
781.7526 
787.1342 
791.4539 
795.7736 
799.3956 
802.3442 
805.9440 
808.5263 
810.9148 
813.7946 
815.3372 
814.8343 
813.0000 
813.0000 
816.8390 
821.6103 
825.9300 
828.8331 
830.8565 
832.5928 
835.4726 
843.0572 
851.6966 
860.2520 
866.7316 
871.3396 
874.1879 
874.9078 
875.0000 
877.4341 
882.6091 
889.0887 
898.6138 
908.9580 
918.3174 
925.6744 
932.0992 
938.3956 
947.7550 
956.0198 
962.8705 
967.9102 
965.8786 
960.7293 
953.9708 
948.9312 
951.5216 
956.7620 
963.2952 
971.2147 
976.8005 
980.7468 
983.6266 
985.8798 
988.0397 
989.9335 
989.2135 
991.0257 
993.9055 
996.7853 
1000.3314 
1001.2275 
999.6814 
997.5216 
997.0000 
1000.1925 
1008.8320 
1017.4714 
1023.9813 
1032.7293 
1036.3291 
1037.5858 
1038.9172 
1041.1284 
1044.7281 
1046.0000 
1046.3711 
1047.8110 
1053.0035 
1059.7993 
1067.7188 
1075.6383 
1080.5263 
1083.2252 
1083.9452 
1084.0000 
1084.0000 
1084.8401 
1090.5998 
1095.2695 
1099.5893 
1103.9090 
1109.6383 
1113.6989 
1116.5788 
1119.4586 
1124.0922 
1128.8273 
1133.0735 
1135.2334 
1133.6779 
1129.7095 
1124.6698 
1119.0058 
1116.3442 
1117.1284 
1118.5683 
1121.0163 
1123.2240 
1123.9440 
1124.0000 
1122.8483 
1121.3116 
1123.4714 
1126.1750 
1127.4726 
1126.0327 
1121.7783 
1114.9172 
1106.7083 
1100.2287 
1097.8331 
1097.0000 
1097.0000 
1097.0000 
1095.6103 
1092.1680 
1084.9685 
1072.1610 
1060.5403 
1051.6219 
1047.3022 
1046.5029 
1047.2229 
1047.9428 
1045.3489 
1040.5554 
1033.4597 
1023.3302 
1016.5741 
1009.3746 
1002.1750 
1002.0000 
1001.5776 
1000.0035 
994.9638 
991.0887 
986.8845 
981.7783 
974.5788 
970.1517 
967.2719 
964.3921 
964.0000 
964.3419 
964.8763 
963.4364 
961.4947 
959.5566 
958.1167 
955.3536 
952.4737 
949.7970 
948.3571 
948.5414 
948.7386 
948.0187 
943.7923 
938.2089 
932.1529 
927.8331 
927.0000 
929.1074 
934.1470 
939.1867 
941.4609 
941.0957 
937.4959 
933.2754 
931.0000 
931.2427 
934.1225 
936.5018 
938.4411 
939.8810 
941.9813 
944.5216 
947.4014 
950.2812 
954.2415 
958.5613 
962.8810 
963.7001 
962.3197 
959.2999 
955.7001 
955.5799 
958.9988 
966.1984 
973.3979 
976.9195 
979.2579 
984.2975 
986.2392 
987.3396 
987.8215 
985.6616 
980.0058 
972.8063 
965.6068 
962.3629 
960.2415 
959.3967 
962.2765 
966.7736 
970.7771 
972.9370 
975.0968 
975.5811 
974.4446 
971.5648 
969.8425 
968.7013 
967.9813 
967.2614 
967.4586 
966.7503 
961.7106 
959.7631 
959.0000 
959.0000 
959.0000 
959.9965 
960.7818 
960.0618 
958.6838 
955.3536 
950.7060 
948.5461 
944.7725 
941.2264 
939.0665 
934.1155 
929.4936 
926.2754 
927.7153 
930.3104 
933.7853 
938.0350 
939.4749 
938.1704 
935.2905 
932.4107 
928.9137 
927.3372 
928.1144 
929.5543 
929.5029 
929.0000 
929.0000 
928.3431 
926.4924 
924.5811 
928.9008 
934.2940 
938.0000 
938.0000 
937.3034 
933.6674 
928.1809 
923.8611 
921.2707 
920.5928 
922.0490 
924.2089 
926.8250 
929.5286 
931.6884 
933.2322 
935.3442 
938.1120 
939.5519 
938.0163 
935.5683 
934.1284 
929.4096 
928.1272 
930.0000 
930.0000 
930.0000 
930.2555 
930.9755 
932.3909 
933.8308 
935.4061 
937.5659 
936.2742 
934.1144 
931.9848 
931.2649 
931.0000 
931.5251 
933.6849 
933.3851 
933.3349 
934.1645 
936.3244 
937.0000 
936.3559 
934.1960 
933.3454 
932.6254 
931.9055 
931.1855 
932.6033 
934.5088 
935.9487 
936.0000 
936.8285 
938.2684 
939.7083 
944.0187 
947.8821 
949.9720 
948.5321 
947.0922 
944.7830 
939.7433 
938.3862 
939.6686 
943.2684 
946.8681 
949.9743 
953.0677 
956.6674 
958.3069 
959.3734 
960.2800 
962.4399 
964.0665 
964.7468 
964.0268 
959.8413 
953.8693 
947.2019 
942.8821 
946.0105 
952.5146 
961.2182 
973.4574 
982.5274 
989.3816 
995.1412 
999.0630 
1005.3232 
1015.1027 
1036.4434 
1074.0677 
1128.0595 
1213.0140 
1303.8390 
1395.2730 
1486.7071 
1578.1412 
1646.6954 
1679.6989 
1661.7001 
1634.0140 
1608.4072 
1585.0443 
1563.4457 
1543.5624 
1524.4154 
1505.6849 
1486.2462 
1467.7106 
1449.7118 
1431.7130 
1410.0455 
1386.4014 
1361.2544 
1336.7760 
1312.7888 
1289.2415 
1266.2030 
1247.0712 
1227.9813 
1208.6336 
1189.9148 
1170.1342 
1151.2299 
1134.6709 
1113.2765 
1093.3209 
1073.8180 
1050.7795 
1020.7351 
999.5403 
973.6429 
949.1645 
927.3886 
909.2742 
897.7550 
888.0665 
881.0187 
876.3979 
867.7585 
860.5893 
853.4796 
844.8401 
838.8005 
831.9312 
823.8320 
814.4726 
804.5834 
796.7515 
793.1517 
788.8623 
784.5426 
780.2229 
775.9032 
772.1529 
770.8681 
773.0187 
774.4586 
777.6954 
782.0152 
786.3349 
790.6546 
798.2649 
809.5881 
818.2275 
825.4002 
831.0443 
834.6441 
837.5951 
841.5811 
847.1529 
856.5123 
862.7001 
867.4912 
871.8110 
872.6884 
873.0000 
873.1284 
873.8483 
877.4096 
882.0175 
887.0082 
887.7281 
890.2404 
894.5123 
900.9918 
908.0793 
915.6068 
923.4306 
929.9102 
934.4387 
939.0770 
946.2765 
953.4761 
958.4702 
961.7876 
968.2672 
973.6919 
980.9580 
992.4772 
1005.3711 
1015.4796 
1022.6359 
1028.4714 
1035.1039 
1040.1482 
1043.0280 
1045.9078 
1048.3407 
1050.0000 
1050.0000 
1050.6068 
1051.3267 
1052.0933 
1053.5333 
1055.9463 
1059.4457 
1064.4854 
1068.8786 
1073.5648 
1078.3454 
1081.2252 
1083.5788 
1085.4924 
1086.9323 
1086.3139 
1087.2182 
1090.0082 
1095.7678 
1101.5274 
1107.8588 
1115.0058 
1115.7258 
1116.4457 
1117.3314 
1118.7713 
1120.8168 
1123.9533 
1128.3186 
1133.3582 
1138.8833 
1144.6429 
1150.4026 
1159.3886 
1167.2870 
1173.5963 
1178.6359 
1182.6254 
1185.2450 
1185.9650 
1183.9452 
1186.2392 
1191.4994 
1194.3792 
1197.8238 
1200.8541 
1203.0140 
1205.1739 
1209.1120 
1213.3291 
1214.7690 
1219.2310 
1224.2707 
1229.3547 
1235.1144 
1242.3267 
1250.8588 
1260.9382 
1265.8646 
1267.2719 
1265.6639 
1262.7841 
1261.4761 
1262.4632 
1266.7830 
1269.7351 
1271.4037 
1272.1237 
1272.8436 
1273.0000 
1273.5671 
1275.0070 
1276.4469 
1273.8961 
1268.0397 
1259.4002 
1248.9510 
1237.8285 
1226.6546 
1220.8950 
1217.5508 
1215.3909 
1213.2310 
1209.7853 
1204.0082 
1196.1715 
1188.9720 
1179.6814 
1170.3302 
1162.4107 
1155.1739 
1147.1692 
1138.4072 
1129.0478 
1118.5636 
1108.8938 
1100.9697 
1091.6103 
1081.3664 
1070.7293 
1060.6499 
1052.9790 
1047.3897 
1043.7480 
1039.4282 
1035.5904 
1031.5869 
1026.5473 
1022.4329 
1018.4679 
1013.6733 
1010.7935 
1006.8705 
1003.0338 
1000.1540 
995.9113 
991.5916 
987.5146 
984.6348 
983.4387 
984.1249 
987.0035 
989.1634 
990.0000 
989.3559 
986.4761 
980.5916 
975.7165 
972.9592 
972.2392 
973.4422 
975.0000 
975.0000 
972.4376 
969.9183 
967.8390 
966.3991 
965.4796 
965.2404 
965.9603 
966.0000 
966.0000 
965.7596 
964.3197 
966.2404 
968.8401 
971.0000 
975.3197 
976.1202 
974.2007 
970.6009 
968.2007 
966.6803 
966.0793 
967.5193 
967.0408 
965.0023 
961.4026 
958.4422 
956.6406 
956.1587 
957.5986 
961.6348 
966.1960 
969.7958 
970.6791 
971.3991 
971.5239 
968.6441 
966.3232 
964.4422 
963.0023 
963.0000 
963.0000 
963.1587 
963.8786 
965.1972 
966.3186 
967.2310 
971.5508 
974.4352 
976.3967 
977.8366 
979.9148 
980.2835 
978.7655 
976.6056 
973.9277 
971.5239 
970.0840 
972.7118 
975.1937 
977.0000 
977.0000 
974.2112 
971.1669 
969.0070 
969.0000 
971.1879 
974.3151 
975.7550 
974.8051 
972.7305 
969.9627 
969.2427 
969.9545 
971.1972 
971.9172 
971.3629 
971.0000 
971.2310 
973.3909 
974.5169 
975.2369 
975.9568 
976.6768 
978.5869 
981.0000 
981.0000 
981.0000 
981.2765 
981.9965 
982.0000 
984.1820 
986.5309 
984.3711 
982.2112 
981.0000 
981.0723 
982.5123 
983.0000 
983.0000 
983.0000 
982.3641 
982.7118 
984.3034 
987.1832 
988.5158 
988.7643 
988.0443 
984.6219 
981.0222 
978.2310 
979.6709 
983.3326 
987.9277 
992.9673 
994.4306 
995.0000 
994.6896 
993.2497 
989.4294 
986.6849 
985.9650 
985.2450 
985.0000 
985.0000 
985.0000 
986.9043 
989.7736 
993.3734 
996.9732 
1002.6313 
1007.0000 
1007.0000 
1004.9767 
1002.0280 
998.0852 
992.3256 
989.8915 
989.0000 
989.0000 
993.2847 
995.0000 
995.3081 
996.7480 
998.7818 
1002.1972 
1007.1015 
1009.2614 
1010.4737 
1010.0315 
1006.4317 
1003.4656 
1000.9393 
999.1470 
1000.5869 
1002.0268 
1004.1669 
1007.7666 
1008.0000 
1008.3932 
1009.0000 
1009.0000 
1011.2124 
1014.0922 
1016.9720 
1019.8518 
1022.5152 
1025.0000 
1025.0000 
1023.0181 
1023.2509 
1028.1634 
1031.7631 
1037.7258 
1044.9253 
1052.1249 
1057.4271 
1064.5811 
1075.0980 
1095.9767 
1132.7351 
1186.1494 
1261.0245 
1351.3582 
1442.7923 
1534.2264 
1625.6604 
1685.6348 
1715.3687 
1711.0490 
1693.9172 
1675.7748 
1657.0560 
1638.3372 
1615.4772 
1592.6534 
1571.1809 
1552.4621 
1536.5718 
1522.1727 
1507.7736 
1489.5869 
1469.4632 
1448.1494 
1429.4306 
1409.1785 
1388.2999 
1367.4212 
1339.1622 
1309.9732 
1280.5659 
1251.7678 
1225.1727 
1200.0665 
1176.3081 
1153.9708 
1130.3606 
1105.2800 
1077.9218 
1050.5636 
1020.3436 
999.1202 
978.2415 
957.3629 
937.4352 
920.1564 
905.3979 
892.7491 
882.1599 
873.5204 
868.9603 
865.6208 
861.3011 
856.3116 
847.3746 
834.9160 
821.2369 
810.8553 
803.3827 
799.0630 
794.0338 
788.9942 
783.6558 
777.1762 
772.4644 
768.1447 
764.1167 
766.9965 
771.2835 
777.0793 
784.9988 
792.2894 
799.8378 
808.1704 
820.4096 
836.2100 
852.3454 
866.0245 
873.0175 
877.5543 
880.3256 
882.4854 
886.8390 
892.6838 
899.8833 
906.3746 
911.5694 
915.0000 
915.0000 
914.4119 
915.8483 
920.2800 
927.4796 
937.4866 
948.6301 
958.7095 
966.2777 
973.1295 
980.0152 
990.8145 
1002.1214 
1012.2754 
1019.4749 
1028.6814 
1038.0992 
1044.2882 
1052.9277 
1068.6814 
1087.2147 
1106.6534 
1122.5566 
1131.9895 
1135.7060 
1134.2660 
1135.7608 
1140.9895 
1150.4562 
1162.6954 
1169.8005 
1173.3734 
1174.8133 
1175.6266 
1177.0397 
1179.3991 
1183.7188 
1189.0513 
1194.5846 
1199.6243 
1203.9977 
1206.3862 
1206.4691 
1202.8693 
1199.2695 
1196.4679 
1195.0280 
1197.8238 
1197.2964 
1195.0000 
1195.0000 
1197.3431 
1199.9172 
1202.1027 
1204.9825 
1207.3967 
1210.6698 
1217.1494 
1221.7526 
1224.0000 
1224.0000 
1224.0000 
1223.4947 
1223.4504 
1224.8903 
1226.9953 
1228.7701 
1230.4201 
1233.2999 
1238.3594 
1244.1190 
1249.8786 
1253.5239 
1256.6989 
1259.2894 
1260.7293 
1262.7538 
1266.4364 
1272.2695 
1280.1890 
1288.1085 
1295.8436 
1303.0432 
1305.2485 
1304.2789 
1300.6149 
1296.2952 
1292.9837 
1289.4317 
1284.3921 
1284.0000 
1287.4551 
1293.8308 
1299.5904 
1300.4562 
1297.6266 
1291.1470 
1281.1494 
1272.3407 
1265.5694 
1263.4096 
1263.0000 
1263.9102 
1265.9767 
1265.2567 
1263.6103 
1260.7176 
1255.6779 
1249.3921 
1243.5986 
1238.6849 
1235.0852 
1229.9767 
1223.5484 
1215.6289 
1206.3839 
1197.7900 
1189.8705 
1181.9510 
1174.5741 
1168.6873 
1165.0875 
1160.7853 
1156.4656 
1152.1459 
1147.8261 
1143.5064 
1138.2800 
1131.7340 
1123.0945 
1113.0688 
1102.6336 
1093.2742 
1087.0245 
1081.6068 
1076.5671 
1071.5274 
1065.9860 
1061.5566 
1060.1167 
1056.6919 
1053.4737 
1050.3909 
1046.0712 
1045.0000 
1044.2159 
1042.0560 
1038.4936 
1035.3151 
1032.2940 
1028.6943 
1025.6756 
1024.6021 
1026.0210 
1026.7410 
1024.6954 
1022.2765 
1019.3967 
1017.1377 
1016.6814 
1017.6966 
1014.0968 
1009.9965 
1007.2205 
1007.9405 
1009.9813 
1012.1412 
1013.6989 
1011.5391 
1010.4597 
1009.4796 
1008.0397 
1010.1004 
1011.4201 
1012.1400 
1012.8600 
1013.0000 
1012.4002 
1011.0000 
1011.0000 
1010.0805 
1008.4609 
1006.3011 
1003.5216 
1000.3022 
997.1785 
999.3384 
1003.9953 
1008.0000 
1008.0000 
1007.3407 
1006.6208 
1005.9008 
1005.1809 
1007.6954 
1010.7771 
1012.9370 
1013.6989 
1014.0000 
1013.8611 
1013.1412 
1010.6849 
1009.8961 
1012.0000 
1012.0000 
1010.6243 
1009.0000 
1009.0000 
1009.0000 
1009.3384 
1010.3501 
1014.6698 
1019.9860 
1025.0910 
1028.6908 
1026.3676 
1022.0426 
1017.5099 
1013.9102 
1011.3862 
1010.7736 
1012.9335 
1016.4889 
1019.2532 
1021.1377 
1021.8576 
1020.2672 
1019.5951 
1020.9825 
1020.2625 
1018.6278 
1015.5811 
1009.8215 
1007.1482 
1007.0117 
1009.0572 
1009.7771 
1013.4796 
1017.6511 
1019.8110 
1021.3139 
1022.0000 
1021.7095 
1019.5496 
1019.0000 
1019.5134 
1020.9533 
1020.3034 
1021.2497 
1022.5904 
1020.4306 
1018.8471 
1018.5928 
1020.0163 
1020.7363 
1022.3687 
1023.6476 
1022.2077 
1018.3034 
1013.9837 
1010.3361 
1014.6558 
1018.4796 
1021.7555 
1024.5508 
1025.0000 
1022.8092 
1019.1389 
1012.6593 
1012.6068 
1014.0000 
1014.0000 
1018.1727 
1021.2462 
1023.3384 
1026.2765 
1025.8495 
1026.4761 
1030.0758 
1033.6756 
1036.3652 
1037.1249 
1033.5251 
1028.6954 
1022.9907 
1018.9452 
1018.2252 
1019.9790 
1022.5368 
1024.6733 
1026.3092 
1027.3746 
1027.7165 
1025.5566 
1023.6984 
1023.8903 
1028.8203 
1033.1657 
1035.4142 
1035.4632 
1032.5834 
1026.2590 
1022.7060 
1022.0280 
1023.4679 
1024.4539 
1025.1739 
1025.8938 
1025.3862 
1025.6674 
1027.1610 
1029.3209 
1031.4807 
1033.6406 
1035.8005 
1037.9603 
1039.0000 
1038.7200 
1036.5601 
1034.4002 
1033.0000 
1033.0000 
1032.3069 
1032.4131 
1032.7340 
1031.2940 
1031.5729 
1032.5858 
1034.0385 
1036.1984 
1038.3582 
1040.5181 
1042.6779 
1042.3874 
1040.3372 
1037.0000 
1037.0000 
1037.4924 
1039.9113 
1046.3909 
1054.1750 
1060.6056 
1064.7235 
1062.5636 
1061.4679 
1062.7643 
1067.8040 
1079.0712 
1096.7690 
1121.3291 
1155.8868 
1220.7480 
1301.0478 
1392.4819 
1483.9160 
1575.3501 
1655.8063 
1701.1634 
1698.8285 
1685.7095 
1670.1785 
1658.6593 
1647.6313 
1636.1984 
1623.2392 
1610.2800 
1594.3524 
1576.0887 
1560.9697 
1545.3197 
1530.2334 
1516.5543 
1499.4212 
1485.0175 
1471.9942 
1455.4352 
1436.5939 
1415.9930 
1393.6849 
1372.0863 
1351.3886 
1330.2077 
1305.7293 
1279.4201 
1252.1214 
1224.0933 
1196.7351 
1170.3571 
1144.0187 
1116.6604 
1089.9522 
1063.6838 
1036.5974 
1012.6599 
989.9883 
966.7585 
945.8798 
931.8973 
918.6278 
905.7981 
893.5589 
883.5974 
875.6849 
869.9347 
864.8950 
857.1599 
847.2929 
835.7736 
823.0362 
808.1027 
790.9218 
775.0828 
763.6441 
754.4936 
745.8541 
747.5951 
749.0000 
749.5321 
753.8518 
761.8716 
772.7223 
786.4014 
800.0805 
814.5764 
829.4387 
843.1179 
853.9557 
863.1704 
871.0653 
876.8250 
882.1365 
886.6721 
889.5519 
893.6476 
897.6394 
901.4784 
908.6779 
913.9265 
917.2077 
917.9277 
917.3524 
916.6324 
916.6126 
921.6523 
930.9113 
941.9580 
953.4772 
962.2474 
966.0000 
966.0000 
966.0000 
970.5368 
979.4539 
993.1120 
1004.6313 
1015.9271 
1027.0023 
1035.6418 
1043.0677 
1048.3069 
1051.4667 
1058.6663 
1067.8121 
1076.6523 
1082.4119 
1088.8180 
1090.9008 
1089.0863 
1089.8063 
1091.5788 
1094.2310 
1097.8308 
1100.7445 
1104.0303 
1107.6301 
1111.2299 
1111.4341 
1111.2859 
1112.0175 
1114.1774 
1117.2287 
1120.9942 
1125.3139 
1128.4224 
1128.0467 
1123.9545 
1123.2345 
1126.8833 
1132.8483 
1139.3279 
1145.8075 
1153.3827 
1161.6814 
1167.4411 
1173.2007 
1177.7351 
1179.8950 
1185.4796 
1190.4294 
1194.6243 
1198.2240 
1200.6943 
1203.4236 
1207.0513 
1214.9708 
1222.8903 
1230.4807 
1236.9603 
1242.8355 
1248.2707 
1253.3991 
1259.8786 
1265.3897 
1269.2042 
1269.9242 
1271.2882 
1273.4562 
1275.9160 
1275.1960 
1275.5239 
1276.4877 
1277.9277 
1282.1027 
1288.0373 
1295.3606 
1303.2800 
1307.2544 
1309.2835 
1309.9755 
1304.9358 
1300.7830 
1297.8366 
1297.1167 
1293.3804 
1287.7678 
1280.5683 
1273.3687 
1268.1015 
1264.5939 
1263.1540 
1261.7141 
1258.8226 
1254.3372 
1248.5776 
1244.9090 
1242.5146 
1241.0747 
1237.5869 
1232.3769 
1225.4072 
1216.0478 
1208.3757 
1202.3057 
1198.0023 
1198.7223 
1195.9043 
1189.7293 
1179.6499 
1166.5601 
1154.8133 
1145.7900 
1142.1902 
1136.1809 
1128.5776 
1119.9382 
1110.6569 
1102.3827 
1095.3466 
1089.5869 
1084.8705 
1080.7923 
1077.1925 
1070.8670 
1063.5846 
1056.1505 
1051.1109 
1048.8775 
1048.0000 
1048.0023 
1049.4422 
1047.3536 
1043.3559 
1040.4761 
1036.9953 
1034.0373 
1032.0408 
1032.7608 
1033.9615 
1034.7993 
1034.0793 
1031.4376 
1030.3606 
1030.5974 
1026.9977 
1024.9592 
1023.0385 
1020.1587 
1015.9183 
1012.7993 
1011.2404 
1012.6803 
1010.7596 
1007.5998 
1004.0000 
1009.0397 
1012.3197 
1014.3197 
1015.7596 
1014.8005 
1012.4014 
1009.0397 
1009.7596 
1010.4796 
1011.9977 
1015.5974 
1017.2789 
1019.4376 
1021.7620 
1019.6021 
1016.9230 
1014.2824 
1012.1225 
1011.3209 
1011.7981 
1012.8810 
1012.1610 
1012.5589 
1013.5578 
1014.9977 
1016.4376 
1015.6838 
1013.5239 
1011.3641 
1008.0070 
1006.6371 
1008.1925 
1011.7923 
1016.8273 
1021.5951 
1023.7550 
1021.4469 
1018.9253 
1016.6091 
1013.0093 
1011.4819 
1011.2380 
1011.9580 
1015.3897 
1017.3979 
1018.5893 
1022.1890 
1023.5578 
1024.5554 
1025.9953 
1025.2824 
1023.8436 
1023.1575 
1023.8775 
1025.7923 
1025.4131 
1022.8506 
1019.9708 
1019.0000 
1018.8028 
1018.0828 
1019.9113 
1021.3571 
1022.0770 
1022.7970 
1023.0000 
1022.5263 
1021.0863 
1020.3232 
1018.4131 
1016.4667 
1019.3466 
1021.6698 
1023.4148 
1024.9895 
1025.7165 
1026.8728 
1028.0000 
1028.0000 
1025.6149 
1022.4189 
1019.0000 
1019.0000 
1019.0000 
1018.8040 
1018.0840 
1014.8203 
1011.2205 
1007.7725 
1005.6126 
1007.0630 
1011.1214 
1017.6009 
1022.7293 
1027.9778 
1030.8845 
1030.1645 
1024.4457 
1021.7246 
1021.0047 
1023.8611 
1027.3057 
1028.8448 
1028.1249 
1030.3804 
1033.5753 
1037.3501 
1044.5496 
1050.3244 
1055.7538 
1062.2334 
1065.5391 
1067.7095 
1068.8506 
1067.4107 
1065.4562 
1063.7655 
1063.0455 
1065.6978 
1067.0000 
1067.1144 
1067.8343 
1069.1085 
1070.8226 
1072.9825 
1073.0000 
1074.7363 
1076.8460 
1076.1260 
1075.4061 
1074.3722 
1073.0338 
1073.7538 
1076.8425 
1080.9685 
1084.5683 
1086.2672 
1086.6464 
1085.3384 
1078.8588 
1073.9195 
1069.3664 
1064.3267 
1061.9802 
1060.2135 
1058.6604 
1056.5006 
1056.5531 
1058.3652 
1061.9650 
1063.4259 
1063.1342 
1060.7771 
1055.0175 
1045.7013 
1036.8728 
1029.9673 
1029.2474 
1029.4726 
1031.3477 
1036.3874 
1037.6324 
1039.7620 
1042.9277 
1042.2077 
1044.0490 
1046.4644 
1047.9043 
1057.4096 
1074.1540 
1100.1692 
1146.2462 
1222.6791 
1310.5286 
1401.9627 
1493.3967 
1584.8308 
1659.7305 
1672.6896 
1663.1680 
1648.7690 
1634.6219 
1625.9825 
1616.4002 
1605.9382 
1594.4189 
1580.3746 
1562.8145 
1542.0070 
1521.8483 
1503.2229 
1485.9172 
1470.0782 
1455.5811 
1438.0548 
1417.1202 
1391.9218 
1365.6219 
1338.4422 
1310.3641 
1285.8390 
1262.2217 
1239.3337 
1217.0152 
1191.7445 
1164.2742 
1134.6954 
1103.7375 
1074.6604 
1047.1529 
1022.6173 
997.6861 
972.0980 
947.3396 
919.9813 
896.1925 
875.7130 
859.1540 
845.2742 
835.1027 
827.9032 
820.7036 
814.0537 
809.1914 
807.0315 
804.1622 
797.4177 
787.3116 
774.3524 
760.8040 
747.7433 
735.7666 
730.0070 
723.7783 
717.6768 
712.6371 
710.7421 
710.6978 
712.7573 
720.6768 
734.1925 
750.2602 
766.8191 
784.7153 
801.1599 
815.9533 
828.9125 
840.7748 
850.9522 
858.8716 
866.7911 
873.4259 
879.0373 
884.0770 
889.7048 
895.4644 
901.3081 
909.2275 
916.2112 
921.5636 
923.7235 
920.8611 
919.3477 
920.2707 
923.1505 
933.1365 
946.5508 
960.9498 
968.6744 
975.0992 
980.8588 
986.6184 
993.4726 
1002.5426 
1014.7818 
1025.0922 
1037.2707 
1043.8821 
1048.2019 
1051.3477 
1056.0688 
1063.4831 
1076.4422 
1090.3349 
1103.0537 
1110.9732 
1115.1330 
1117.3466 
1118.0665 
1118.7865 
1123.0513 
1128.1319 
1131.7316 
1138.6628 
1144.7036 
1149.3186 
1151.4784 
1152.5461 
1154.5963 
1158.9160 
1164.6476 
1169.9813 
1174.7293 
1178.3291 
1183.1004 
1187.2229 
1190.2054 
1195.9650 
1202.1902 
1207.9277 
1211.5274 
1214.5018 
1217.7270 
1221.2614 
1224.1412 
1228.5368 
1234.0268 
1240.5064 
1247.6511 
1254.8506 
1261.9452 
1268.4247 
1272.7246 
1276.5893 
1280.9090 
1288.0478 
1295.2474 
1302.1575 
1307.9172 
1311.9230 
1315.2182 
1318.1715 
1323.2112 
1328.2509 
1332.9218 
1336.5216 
1338.8728 
1341.7211 
1345.2567 
1348.1365 
1351.0163 
1353.4481 
1354.8880 
1355.0000 
1353.8483 
1351.6884 
1349.5286 
1347.9125 
1347.0000 
1347.0000 
1347.0000 
1345.7293 
1342.4212 
1334.5018 
1329.4994 
1325.4831 
1321.9300 
1319.7701 
1317.6103 
1314.9008 
1310.5811 
1306.8845 
1302.2555 
1296.3699 
1289.1704 
1283.9825 
1279.4399 
1274.4002 
1267.3722 
1261.3209 
1256.3839 
1252.0642 
1246.6593 
1239.5869 
1230.2275 
1218.0583 
1206.2415 
1194.1529 
1179.7538 
1170.0128 
1162.8845 
1157.8891 
1154.2894 
1148.8413 
1142.1797 
1134.9802 
1127.1587 
1119.2392 
1111.5671 
1106.5274 
1101.9895 
1098.5566 
1097.1167 
1094.3536 
1091.4737 
1088.5939 
1085.7141 
1082.8343 
1081.2614 
1081.9813 
1079.8961 
1078.5788 
1076.8705 
1071.1109 
1067.0945 
1064.3979 
1063.0000 
1063.0000 
1060.6954 
1058.5426 
1060.7025 
1061.0000 
1062.0222 
1063.9393 
1063.2194 
1061.9988 
1060.5589 
1059.1190 
1058.3396 
1056.4784 
1054.2007 
1055.6406 
1054.9195 
1054.0000 
1054.0000 
1055.4002 
1056.8401 
1058.7001 
1062.2999 
1064.1599 
1064.4002 
1062.9405 
1060.7806 
1060.4597 
1061.7188 
1064.5986 
1066.8588 
1068.6791 
1069.9405 
1069.2205 
1070.4982 
1072.6581 
1074.8180 
1077.6371 
1080.5169 
1083.2975 
1085.4574 
1087.6173 
1090.8133 
1095.8530 
1099.4947 
1103.0945 
1106.6943 
1110.2940 
1115.0513 
1120.9872 
1128.0933 
1131.6931 
1135.7515 
1137.9288 
1133.6091 
1126.1972 
1119.9697 
1115.9417 
1115.2217 
1117.4912 
1120.6546 
1122.8145 
1124.9743 
1125.2439 
1123.7060 
1121.5461 
1119.3862 
1119.2894 
1122.8891 
1123.6978 
1125.2532 
1126.4492 
1123.5694 
1117.2240 
1111.2147 
1106.9300 
1104.0502 
1103.9148 
1104.1132 
1100.5134 
1095.6791 
1090.9767 
1086.7713 
1083.8915 
1083.0000 
1084.0852 
1087.6849 
1086.0292 
1081.2310 
1074.3221 
1069.2824 
1063.7060 
1058.9732 
1056.0933 
1055.3034 
1055.4166 
1056.1365 
1056.8565 
1059.3057 
1060.1109 
1057.9020 
1053.5823 
1051.5438 
1050.8238 
1050.1039 
1050.6161 
1050.3279 
1048.7200 
1045.1202 
1046.9755 
1050.6476 
1052.8075 
1055.6231 
1057.0000 
1057.0957 
1057.8156 
1055.3221 
1053.2555 
1053.9755 
1053.3046 
1054.6616 
1057.5414 
1060.4212 
1060.4247 
1060.0000 
1059.9697 
1058.5298 
1058.9102 
1060.0000 
1060.0000 
1060.0000 
1058.6604 
1055.9452 
1055.2252 
1055.0000 
1056.0735 
1059.6733 
1060.0000 
1060.0000 
1060.0000 
1060.0000 
1059.4656 
1059.5088 
1060.9487 
1062.3886 
1063.0000 
1062.5974 
1060.4376 
1060.0000 
1059.4119 
1058.0420 
1060.2019 
1062.3617 
1064.0000 
1064.0000 
1065.8413 
1067.0000 
1067.1074 
1068.5473 
1070.9743 
1073.6406 
1075.8005 
1076.6534 
1076.6266 
1076.0000 
1076.0000 
1072.8005 
1070.2532 
1070.9732 
1071.6931 
1073.6523 
1076.7981 
1081.1179 
1083.7188 
1085.0000 
1085.0257 
1086.4656 
1090.1692 
1096.0723 
1104.7118 
1117.0268 
1135.6394 
1162.3081 
1207.6651 
1278.1354 
1362.9708 
1454.4049 
1545.8390 
1613.0782 
1652.5531 
1656.8728 
1652.1470 
1643.9755 
1635.3361 
1628.0805 
1619.2334 
1608.0992 
1592.2602 
1575.8495 
1559.8740 
1544.8016 
1532.5624 
1518.5169 
1503.2264 
1487.3874 
1470.3256 
1452.3839 
1433.6651 
1414.9463 
1397.2100 
1379.7200 
1361.7211 
1339.8156 
1315.6418 
1288.7223 
1254.8845 
1219.9848 
1186.2124 
1155.2544 
1128.4411 
1103.4457 
1079.4259 
1054.2275 
1020.8086 
998.5403 
972.6639 
949.6254 
929.7398 
913.4446 
902.6453 
891.8460 
883.3582 
877.5484 
871.0688 
866.0595 
860.4796 
851.8401 
839.9510 
825.8623 
810.8320 
801.4726 
791.5834 
782.5029 
775.3034 
767.4142 
760.3139 
755.0000 
755.0000 
765.2497 
777.6301 
789.2614 
809.4201 
828.6803 
848.0758 
869.6744 
894.3186 
916.5554 
934.9312 
948.6103 
956.9113 
962.8798 
969.3594 
976.4877 
982.2124 
986.6208 
991.6604 
996.7001 
1002.7340 
1010.6534 
1015.1307 
1017.4084 
1018.1284 
1018.8483 
1022.1254 
1028.4586 
1037.1225 
1047.9218 
1056.0327 
1061.6721 
1064.5519 
1064.3921 
1066.6231 
1072.4784 
1079.6779 
1088.8285 
1099.9463 
1113.6254 
1124.0665 
1132.6756 
1139.8751 
1147.0747 
1153.7468 
1161.9580 
1173.4772 
1183.6219 
1194.5158 
1205.2719 
1212.4714 
1215.7013 
1218.1482 
1221.0000 
1221.0000 
1222.3407 
1225.0012 
1229.3209 
1230.6068 
1231.3267 
1232.0933 
1233.5333 
1236.9195 
1241.4457 
1246.4854 
1248.9393 
1251.8320 
1255.2590 
1257.4189 
1259.5788 
1262.9697 
1268.7293 
1275.1750 
1278.4061 
1279.1260 
1279.8460 
1281.1319 
1283.7153 
1288.0525 
1294.5321 
1298.3372 
1300.9942 
1305.3139 
1309.0280 
1313.2789 
1318.1820 
1321.0618 
1325.3979 
1329.6161 
1331.7760 
1336.5169 
1339.0000 
1339.2555 
1341.4154 
1344.1004 
1347.2252 
1350.8250 
1352.3699 
1353.0000 
1353.4994 
1356.3792 
1357.5648 
1358.2847 
1359.0093 
1360.4492 
1361.4446 
1361.8355 
1361.1155 
1361.0000 
1361.3244 
1361.9113 
1360.4714 
1360.0000 
1360.6126 
1362.7725 
1361.0677 
1357.8156 
1353.7480 
1351.5881 
1351.0000 
1351.2439 
1351.9638 
1349.9487 
1346.5776 
1342.6289 
1340.4691 
1338.8728 
1336.2987 
1331.9895 
1329.8296 
1327.2264 
1324.6733 
1323.2334 
1320.5869 
1317.0607 
1312.6546 
1306.8950 
1303.0677 
1300.3909 
1298.2310 
1297.3571 
1296.2742 
1294.1715 
1286.9720 
1278.7270 
1270.5729 
1263.3734 
1259.5869 
1254.7795 
1249.2649 
1244.9452 
1238.3757 
1232.0233 
1226.9860 
1222.6663 
1218.7888 
1215.0268 
1210.7071 
1202.7748 
1193.4912 
1183.3279 
1171.8086 
1162.2170 
1154.7888 
1150.4691 
1147.4329 
1144.9148 
1142.3466 
1136.5869 
1128.7410 
1120.8261 
1114.3466 
1109.2299 
1104.5916 
1100.5146 
1097.6348 
1095.8775 
1095.0000 
1095.0000 
1095.0000 
1094.1179 
1091.8728 
1086.8331 
1085.3991 
1084.0373 
1081.9183 
1080.4784 
1081.4422 
1082.5986 
1081.1587 
1074.5939 
1069.5578 
1067.0805 
1067.8005 
1068.5204 
1069.2404 
1069.9603 
1067.9592 
1066.5998 
1066.3606 
1068.5204 
1070.6803 
1071.7200 
1071.0000 
